Chart Count,Pressure [ Pa ]
0.00000000e+00, -7.73824829e+02
1.00000000e+00, -7.63449646e+02
2.00000000e+00, -7.53065186e+02
3.00000000e+00, -7.42697021e+02
4.00000000e+00, -7.32325928e+02
5.00000000e+00, -7.22039978e+02
6.00000000e+00, -7.22173340e+02
7.00000000e+00, -7.22306274e+02
8.00000000e+00, -7.22439209e+02
9.00000000e+00, -7.22572144e+02
1.00000000e+01, -7.22741211e+02
1.10000000e+01, -7.24926819e+02
1.20000000e+01, -7.27112427e+02
1.30000000e+01, -7.29299316e+02
1.40000000e+01, -7.31485474e+02
1.50000000e+01, -7.33695618e+02
1.60000000e+01, -7.36779358e+02
1.70000000e+01, -7.39863281e+02
1.80000000e+01, -7.42947021e+02
1.90000000e+01, -7.46032715e+02
2.00000000e+01, -7.49127869e+02
2.10000000e+01, -7.52501831e+02
2.20000000e+01, -7.55875854e+02
2.30000000e+01, -7.59249878e+02
2.40000000e+01, -7.62625732e+02
2.50000000e+01, -7.66011475e+02
2.60000000e+01, -7.69627380e+02
2.70000000e+01, -7.73243408e+02
2.80000000e+01, -7.76859314e+02
2.90000000e+01, -7.80477295e+02
3.00000000e+01, -7.84088745e+02
3.10000000e+01, -7.87602112e+02
3.20000000e+01, -7.91115479e+02
3.30000000e+01, -7.94628784e+02
3.40000000e+01, -7.98142151e+02
3.50000000e+01, -8.01644287e+02
3.60000000e+01, -8.04961792e+02
3.70000000e+01, -8.08279175e+02
3.80000000e+01, -8.11596680e+02
3.90000000e+01, -8.14914185e+02
4.00000000e+01, -8.18215759e+02
4.10000000e+01, -8.21296387e+02
4.20000000e+01, -8.24377075e+02
4.30000000e+01, -8.27457703e+02
4.40000000e+01, -8.30538330e+02
4.50000000e+01, -8.33604065e+02
4.60000000e+01, -8.36493530e+02
4.70000000e+01, -8.39383057e+02
4.80000000e+01, -8.42272522e+02
4.90000000e+01, -8.45161987e+02
5.00000000e+01, -8.48029358e+02
5.10000000e+01, -8.50664978e+02
5.20000000e+01, -8.53300659e+02
5.30000000e+01, -8.55936218e+02
5.40000000e+01, -8.58571838e+02
5.50000000e+01, -8.61169739e+02
5.60000000e+01, -8.63411987e+02
5.70000000e+01, -8.65654175e+02
5.80000000e+01, -8.67896362e+02
5.90000000e+01, -8.70138550e+02
6.00000000e+01, -8.72376160e+02
6.10000000e+01, -8.74574158e+02
6.20000000e+01, -8.76772339e+02
6.30000000e+01, -8.78970337e+02
6.40000000e+01, -8.81168457e+02
6.50000000e+01, -8.83384155e+02
6.60000000e+01, -8.85738586e+02
6.70000000e+01, -8.88093018e+02
6.80000000e+01, -8.90447449e+02
6.90000000e+01, -8.92801819e+02
7.00000000e+01, -8.95166138e+02
7.10000000e+01, -8.97601624e+02
7.20000000e+01, -9.00037170e+02
7.30000000e+01, -9.02472656e+02
7.40000000e+01, -9.04908142e+02
7.50000000e+01, -9.07274963e+02
7.60000000e+01, -9.09183777e+02
7.70000000e+01, -9.11092529e+02
7.80000000e+01, -9.13001343e+02
7.90000000e+01, -9.14910156e+02
8.00000000e+01, -9.16727234e+02
8.10000000e+01, -9.17976807e+02
8.20000000e+01, -9.19226379e+02
8.30000000e+01, -9.20476074e+02
8.40000000e+01, -9.21725708e+02
8.50000000e+01, -9.22951904e+02
8.60000000e+01, -9.24042969e+02
8.70000000e+01, -9.25134033e+02
8.80000000e+01, -9.26225098e+02
8.90000000e+01, -9.27316162e+02
9.00000000e+01, -9.28411560e+02
9.10000000e+01, -9.29530518e+02
9.20000000e+01, -9.30649536e+02
9.30000000e+01, -9.31768555e+02
9.40000000e+01, -9.32887634e+02
9.50000000e+01, -9.34130310e+02
9.60000000e+01, -9.35997803e+02
9.70000000e+01, -9.37865295e+02
9.80000000e+01, -9.39732910e+02
9.90000000e+01, -9.41600403e+02
1.00000000e+02, -9.43362061e+02
1.01000000e+02, -9.44621155e+02
1.02000000e+02, -9.45880310e+02
1.03000000e+02, -9.47139404e+02
1.04000000e+02, -9.48398560e+02
1.05000000e+02, -9.49616455e+02
1.06000000e+02, -9.50649963e+02
1.07000000e+02, -9.51683472e+02
1.08000000e+02, -9.52716919e+02
1.09000000e+02, -9.53750427e+02
1.10000000e+02, -9.54713928e+02
1.11000000e+02, -9.55382019e+02
1.12000000e+02, -9.56050049e+02
1.13000000e+02, -9.56718140e+02
1.14000000e+02, -9.57386108e+02
1.15000000e+02, -9.58086304e+02
1.16000000e+02, -9.58914978e+02
1.17000000e+02, -9.59743530e+02
1.18000000e+02, -9.60572144e+02
1.19000000e+02, -9.61400757e+02
1.20000000e+02, -9.62236145e+02
1.21000000e+02, -9.63097046e+02
1.22000000e+02, -9.63958008e+02
1.23000000e+02, -9.64818970e+02
1.24000000e+02, -9.65679932e+02
1.25000000e+02, -9.66535095e+02
1.26000000e+02, -9.67369934e+02
1.27000000e+02, -9.68204834e+02
1.28000000e+02, -9.69039673e+02
1.29000000e+02, -9.69874512e+02
1.30000000e+02, -9.70683655e+02
1.31000000e+02, -9.71404663e+02
1.32000000e+02, -9.72125732e+02
1.33000000e+02, -9.72846802e+02
1.34000000e+02, -9.73567932e+02
1.35000000e+02, -9.74278198e+02
1.36000000e+02, -9.74953186e+02
1.37000000e+02, -9.75628296e+02
1.38000000e+02, -9.76303223e+02
1.39000000e+02, -9.76978271e+02
1.40000000e+02, -9.77662537e+02
1.41000000e+02, -9.78374939e+02
1.42000000e+02, -9.79087463e+02
1.43000000e+02, -9.79799866e+02
1.44000000e+02, -9.80512390e+02
1.45000000e+02, -9.81169922e+02
1.46000000e+02, -9.81664795e+02
1.47000000e+02, -9.82159546e+02
1.48000000e+02, -9.82654358e+02
1.49000000e+02, -9.83149170e+02
1.50000000e+02, -9.83566528e+02
1.51000000e+02, -9.83764465e+02
1.52000000e+02, -9.83962280e+02
1.53000000e+02, -9.84160278e+02
1.54000000e+02, -9.84358154e+02
1.55000000e+02, -9.84530762e+02
1.56000000e+02, -9.84634827e+02
1.57000000e+02, -9.84738892e+02
1.58000000e+02, -9.84842896e+02
1.59000000e+02, -9.84946960e+02
1.60000000e+02, -9.85089600e+02
1.61000000e+02, -9.85331909e+02
1.62000000e+02, -9.85574280e+02
1.63000000e+02, -9.85816589e+02
1.64000000e+02, -9.86058960e+02
1.65000000e+02, -9.86280212e+02
1.66000000e+02, -9.86449646e+02
1.67000000e+02, -9.86619080e+02
1.68000000e+02, -9.86788452e+02
1.69000000e+02, -9.86957886e+02
1.70000000e+02, -9.87133301e+02
1.71000000e+02, -9.87322815e+02
1.72000000e+02, -9.87512207e+02
1.73000000e+02, -9.87701660e+02
1.74000000e+02, -9.87891113e+02
1.75000000e+02, -9.88098145e+02
1.76000000e+02, -9.88345215e+02
1.77000000e+02, -9.88592163e+02
1.78000000e+02, -9.88839233e+02
1.79000000e+02, -9.89086243e+02
1.80000000e+02, -9.89383789e+02
1.81000000e+02, -9.89791992e+02
1.82000000e+02, -9.90200195e+02
1.83000000e+02, -9.90608459e+02
1.84000000e+02, -9.91016663e+02
1.85000000e+02, -9.91369202e+02
1.86000000e+02, -9.91604614e+02
1.87000000e+02, -9.91839966e+02
1.88000000e+02, -9.92075317e+02
1.89000000e+02, -9.92310669e+02
1.90000000e+02, -9.92528076e+02
1.91000000e+02, -9.92709229e+02
1.92000000e+02, -9.92890381e+02
1.93000000e+02, -9.93071533e+02
1.94000000e+02, -9.93252686e+02
1.95000000e+02, -9.93374146e+02
1.96000000e+02, -9.93379211e+02
1.97000000e+02, -9.93384277e+02
1.98000000e+02, -9.93389343e+02
1.99000000e+02, -9.93394470e+02
2.00000000e+02, -9.93286072e+02
2.01000000e+02, -9.92965149e+02
2.02000000e+02, -9.92644287e+02
2.03000000e+02, -9.92323242e+02
2.04000000e+02, -9.92002380e+02
2.05000000e+02, -9.91614014e+02
2.06000000e+02, -9.91104248e+02
2.07000000e+02, -9.90594421e+02
2.08000000e+02, -9.90084534e+02
2.09000000e+02, -9.89574707e+02
2.10000000e+02, -9.89301758e+02
2.11000000e+02, -9.89439697e+02
2.12000000e+02, -9.89577759e+02
2.13000000e+02, -9.89715698e+02
2.14000000e+02, -9.89853638e+02
2.15000000e+02, -9.90065186e+02
2.16000000e+02, -9.90399780e+02
2.17000000e+02, -9.90734314e+02
2.18000000e+02, -9.91068909e+02
2.19000000e+02, -9.91403442e+02
2.20000000e+02, -9.91550171e+02
2.21000000e+02, -9.91394775e+02
2.22000000e+02, -9.91239258e+02
2.23000000e+02, -9.91083984e+02
2.24000000e+02, -9.90928467e+02
2.25000000e+02, -9.90599548e+02
2.26000000e+02, -9.90001221e+02
2.27000000e+02, -9.89402954e+02
2.28000000e+02, -9.88804504e+02
2.29000000e+02, -9.88206177e+02
2.30000000e+02, -9.87707520e+02
2.31000000e+02, -9.87358032e+02
2.32000000e+02, -9.87008545e+02
2.33000000e+02, -9.86658936e+02
2.34000000e+02, -9.86309448e+02
2.35000000e+02, -9.86075562e+02
2.36000000e+02, -9.86008667e+02
2.37000000e+02, -9.85941772e+02
2.38000000e+02, -9.85874878e+02
2.39000000e+02, -9.85807983e+02
2.40000000e+02, -9.85744995e+02
2.41000000e+02, -9.85687317e+02
2.42000000e+02, -9.85629639e+02
2.43000000e+02, -9.85572021e+02
2.44000000e+02, -9.85514404e+02
2.45000000e+02, -9.85323975e+02
2.46000000e+02, -9.84954956e+02
2.47000000e+02, -9.84585876e+02
2.48000000e+02, -9.84216858e+02
2.49000000e+02, -9.83847839e+02
2.50000000e+02, -9.83481750e+02
2.51000000e+02, -9.83119446e+02
2.52000000e+02, -9.82757080e+02
2.53000000e+02, -9.82394775e+02
2.54000000e+02, -9.82032471e+02
2.55000000e+02, -9.81773987e+02
2.56000000e+02, -9.81645386e+02
2.57000000e+02, -9.81516724e+02
2.58000000e+02, -9.81388062e+02
2.59000000e+02, -9.81259399e+02
2.60000000e+02, -9.81087097e+02
2.61000000e+02, -9.80861877e+02
2.62000000e+02, -9.80636780e+02
2.63000000e+02, -9.80411621e+02
2.64000000e+02, -9.80186462e+02
2.65000000e+02, -9.79859009e+02
2.66000000e+02, -9.79412231e+02
2.67000000e+02, -9.78965515e+02
2.68000000e+02, -9.78518799e+02
2.69000000e+02, -9.78072021e+02
2.70000000e+02, -9.77649414e+02
2.71000000e+02, -9.77254211e+02
2.72000000e+02, -9.76858948e+02
2.73000000e+02, -9.76463623e+02
2.74000000e+02, -9.76068359e+02
2.75000000e+02, -9.75653442e+02
2.76000000e+02, -9.75217163e+02
2.77000000e+02, -9.74780823e+02
2.78000000e+02, -9.74344543e+02
2.79000000e+02, -9.73908203e+02
2.80000000e+02, -9.73541748e+02
2.81000000e+02, -9.73248657e+02
2.82000000e+02, -9.72955444e+02
2.83000000e+02, -9.72662354e+02
2.84000000e+02, -9.72369202e+02
2.85000000e+02, -9.72150391e+02
2.86000000e+02, -9.72006958e+02
2.87000000e+02, -9.71863525e+02
2.88000000e+02, -9.71720154e+02
2.89000000e+02, -9.71576660e+02
2.90000000e+02, -9.71381714e+02
2.91000000e+02, -9.71136230e+02
2.92000000e+02, -9.70890747e+02
2.93000000e+02, -9.70645264e+02
2.94000000e+02, -9.70399780e+02
2.95000000e+02, -9.70084778e+02
2.96000000e+02, -9.69704041e+02
2.97000000e+02, -9.69323303e+02
2.98000000e+02, -9.68942505e+02
2.99000000e+02, -9.68561768e+02
3.00000000e+02, -9.68161682e+02
3.01000000e+02, -9.67743774e+02
3.02000000e+02, -9.67325928e+02
3.03000000e+02, -9.66907959e+02
3.04000000e+02, -9.66490112e+02
3.05000000e+02, -9.66051453e+02
3.06000000e+02, -9.65594482e+02
3.07000000e+02, -9.65137451e+02
3.08000000e+02, -9.64680542e+02
3.09000000e+02, -9.64223450e+02
3.10000000e+02, -9.63854797e+02
3.11000000e+02, -9.63561523e+02
3.12000000e+02, -9.63268188e+02
3.13000000e+02, -9.62974854e+02
3.14000000e+02, -9.62681396e+02
3.15000000e+02, -9.62406372e+02
3.16000000e+02, -9.62146423e+02
3.17000000e+02, -9.61886475e+02
3.18000000e+02, -9.61626526e+02
3.19000000e+02, -9.61366577e+02
3.20000000e+02, -9.60985474e+02
3.21000000e+02, -9.60508301e+02
3.22000000e+02, -9.60031128e+02
3.23000000e+02, -9.59553894e+02
3.24000000e+02, -9.59076721e+02
3.25000000e+02, -9.58449402e+02
3.26000000e+02, -9.57707031e+02
3.27000000e+02, -9.56964539e+02
3.28000000e+02, -9.56222107e+02
3.29000000e+02, -9.55479736e+02
3.30000000e+02, -9.54847656e+02
3.31000000e+02, -9.54297119e+02
3.32000000e+02, -9.53746582e+02
3.33000000e+02, -9.53196167e+02
3.34000000e+02, -9.52645630e+02
3.35000000e+02, -9.52251282e+02
3.36000000e+02, -9.51968384e+02
3.37000000e+02, -9.51685425e+02
3.38000000e+02, -9.51402466e+02
3.39000000e+02, -9.51119507e+02
3.40000000e+02, -9.50820007e+02
3.41000000e+02, -9.50509277e+02
3.42000000e+02, -9.50198486e+02
3.43000000e+02, -9.49887756e+02
3.44000000e+02, -9.49576965e+02
3.45000000e+02, -9.49182312e+02
3.46000000e+02, -9.48731812e+02
3.47000000e+02, -9.48281311e+02
3.48000000e+02, -9.47830811e+02
3.49000000e+02, -9.47380371e+02
3.50000000e+02, -9.46849609e+02
3.51000000e+02, -9.46267212e+02
3.52000000e+02, -9.45684937e+02
3.53000000e+02, -9.45102661e+02
3.54000000e+02, -9.44520386e+02
3.55000000e+02, -9.43873474e+02
3.56000000e+02, -9.43186646e+02
3.57000000e+02, -9.42499756e+02
3.58000000e+02, -9.41812988e+02
3.59000000e+02, -9.41126160e+02
3.60000000e+02, -9.40504272e+02
3.61000000e+02, -9.39920898e+02
3.62000000e+02, -9.39337524e+02
3.63000000e+02, -9.38754150e+02
3.64000000e+02, -9.38170837e+02
3.65000000e+02, -9.37613953e+02
3.66000000e+02, -9.37072266e+02
3.67000000e+02, -9.36530640e+02
3.68000000e+02, -9.35988892e+02
3.69000000e+02, -9.35447266e+02
3.70000000e+02, -9.34888672e+02
3.71000000e+02, -9.34320557e+02
3.72000000e+02, -9.33752563e+02
3.73000000e+02, -9.33184570e+02
3.74000000e+02, -9.32616516e+02
3.75000000e+02, -9.32122925e+02
3.76000000e+02, -9.31668579e+02
3.77000000e+02, -9.31214355e+02
3.78000000e+02, -9.30760132e+02
3.79000000e+02, -9.30305847e+02
3.80000000e+02, -9.29949829e+02
3.81000000e+02, -9.29643921e+02
3.82000000e+02, -9.29338013e+02
3.83000000e+02, -9.29032166e+02
3.84000000e+02, -9.28726318e+02
3.85000000e+02, -9.28215027e+02
3.86000000e+02, -9.27602844e+02
3.87000000e+02, -9.26990601e+02
3.88000000e+02, -9.26378479e+02
3.89000000e+02, -9.25766235e+02
3.90000000e+02, -9.25134277e+02
3.91000000e+02, -9.24493042e+02
3.92000000e+02, -9.23851807e+02
3.93000000e+02, -9.23210571e+02
3.94000000e+02, -9.22569336e+02
3.95000000e+02, -9.21885742e+02
3.96000000e+02, -9.21182739e+02
3.97000000e+02, -9.20479919e+02
3.98000000e+02, -9.19776978e+02
3.99000000e+02, -9.19074097e+02
4.00000000e+02, -9.18465698e+02
4.01000000e+02, -9.17898376e+02
4.02000000e+02, -9.17331055e+02
4.03000000e+02, -9.16763733e+02
4.04000000e+02, -9.16196411e+02
4.05000000e+02, -9.15695435e+02
4.06000000e+02, -9.15221924e+02
4.07000000e+02, -9.14748596e+02
4.08000000e+02, -9.14275208e+02
4.09000000e+02, -9.13801880e+02
4.10000000e+02, -9.13344421e+02
4.11000000e+02, -9.12893311e+02
4.12000000e+02, -9.12442139e+02
4.13000000e+02, -9.11991089e+02
4.14000000e+02, -9.11539978e+02
4.15000000e+02, -9.11085999e+02
4.16000000e+02, -9.10630859e+02
4.17000000e+02, -9.10175659e+02
4.18000000e+02, -9.09720581e+02
4.19000000e+02, -9.09265442e+02
4.20000000e+02, -9.08758301e+02
4.21000000e+02, -9.08231934e+02
4.22000000e+02, -9.07705566e+02
4.23000000e+02, -9.07179260e+02
4.24000000e+02, -9.06652893e+02
4.25000000e+02, -9.05934326e+02
4.26000000e+02, -9.05148254e+02
4.27000000e+02, -9.04362122e+02
4.28000000e+02, -9.03576050e+02
4.29000000e+02, -9.02789978e+02
4.30000000e+02, -9.02068787e+02
4.31000000e+02, -9.01369263e+02
4.32000000e+02, -9.00669800e+02
4.33000000e+02, -8.99970337e+02
4.34000000e+02, -8.99270874e+02
4.35000000e+02, -8.98609741e+02
4.36000000e+02, -8.97960815e+02
4.37000000e+02, -8.97312012e+02
4.38000000e+02, -8.96663086e+02
4.39000000e+02, -8.96014160e+02
4.40000000e+02, -8.95489075e+02
4.41000000e+02, -8.95001709e+02
4.42000000e+02, -8.94514404e+02
4.43000000e+02, -8.94027100e+02
4.44000000e+02, -8.93539795e+02
4.45000000e+02, -8.93029846e+02
4.46000000e+02, -8.92513489e+02
4.47000000e+02, -8.91997070e+02
4.48000000e+02, -8.91480591e+02
4.49000000e+02, -8.90964233e+02
4.50000000e+02, -8.90417358e+02
4.51000000e+02, -8.89862122e+02
4.52000000e+02, -8.89306885e+02
4.53000000e+02, -8.88751587e+02
4.54000000e+02, -8.88196411e+02
4.55000000e+02, -8.87653809e+02
4.56000000e+02, -8.87114502e+02
4.57000000e+02, -8.86575317e+02
4.58000000e+02, -8.86036011e+02
4.59000000e+02, -8.85496765e+02
4.60000000e+02, -8.84930542e+02
4.61000000e+02, -8.84357605e+02
4.62000000e+02, -8.83784790e+02
4.63000000e+02, -8.83211853e+02
4.64000000e+02, -8.82638977e+02
4.65000000e+02, -8.81983154e+02
4.66000000e+02, -8.81307739e+02
4.67000000e+02, -8.80632507e+02
4.68000000e+02, -8.79957153e+02
4.69000000e+02, -8.79281860e+02
4.70000000e+02, -8.78554749e+02
4.71000000e+02, -8.77816040e+02
4.72000000e+02, -8.77077393e+02
4.73000000e+02, -8.76338867e+02
4.74000000e+02, -8.75600220e+02
4.75000000e+02, -8.74929138e+02
4.76000000e+02, -8.74272034e+02
4.77000000e+02, -8.73614990e+02
4.78000000e+02, -8.72957947e+02
4.79000000e+02, -8.72300903e+02
4.80000000e+02, -8.71707031e+02
4.81000000e+02, -8.71125549e+02
4.82000000e+02, -8.70544067e+02
4.83000000e+02, -8.69962585e+02
4.84000000e+02, -8.69381104e+02
4.85000000e+02, -8.68867432e+02
4.86000000e+02, -8.68366272e+02
4.87000000e+02, -8.67865112e+02
4.88000000e+02, -8.67363892e+02
4.89000000e+02, -8.66862732e+02
4.90000000e+02, -8.66348206e+02
4.91000000e+02, -8.65831360e+02
4.92000000e+02, -8.65314575e+02
4.93000000e+02, -8.64797791e+02
4.94000000e+02, -8.64280884e+02
4.95000000e+02, -8.63820496e+02
4.96000000e+02, -8.63369141e+02
4.97000000e+02, -8.62917786e+02
4.98000000e+02, -8.62466370e+02
4.99000000e+02, -8.62014954e+02
5.00000000e+02, -8.61456421e+02
5.01000000e+02, -8.60881958e+02
5.02000000e+02, -8.60307495e+02
5.03000000e+02, -8.59733032e+02
5.04000000e+02, -8.59158630e+02
5.05000000e+02, -8.58451538e+02
5.06000000e+02, -8.57726196e+02
5.07000000e+02, -8.57000977e+02
5.08000000e+02, -8.56275696e+02
5.09000000e+02, -8.55550354e+02
5.10000000e+02, -8.54769897e+02
5.11000000e+02, -8.53982605e+02
5.12000000e+02, -8.53195190e+02
5.13000000e+02, -8.52407715e+02
5.14000000e+02, -8.51620361e+02
5.15000000e+02, -8.51184143e+02
5.16000000e+02, -8.50788452e+02
5.17000000e+02, -8.50392761e+02
5.18000000e+02, -8.49997070e+02
5.19000000e+02, -8.49601318e+02
5.20000000e+02, -8.49331787e+02
5.21000000e+02, -8.49075439e+02
5.22000000e+02, -8.48819214e+02
5.23000000e+02, -8.48562988e+02
5.24000000e+02, -8.48306641e+02
5.25000000e+02, -8.48054932e+02
5.26000000e+02, -8.47803650e+02
5.27000000e+02, -8.47552429e+02
5.28000000e+02, -8.47301086e+02
5.29000000e+02, -8.47049805e+02
5.30000000e+02, -8.46620911e+02
5.31000000e+02, -8.46177185e+02
5.32000000e+02, -8.45733459e+02
5.33000000e+02, -8.45289551e+02
5.34000000e+02, -8.44845825e+02
5.35000000e+02, -8.44616821e+02
5.36000000e+02, -8.44403687e+02
5.37000000e+02, -8.44190491e+02
5.38000000e+02, -8.43977417e+02
5.39000000e+02, -8.43764404e+02
5.40000000e+02, -8.45282043e+02
5.41000000e+02, -8.46911316e+02
5.42000000e+02, -8.48540588e+02
5.43000000e+02, -8.50169739e+02
5.44000000e+02, -8.51798950e+02
5.45000000e+02, -8.55736267e+02
5.46000000e+02, -8.59799500e+02
5.47000000e+02, -8.63862732e+02
5.48000000e+02, -8.67926086e+02
5.49000000e+02, -8.71989197e+02
5.50000000e+02, -8.73813660e+02
5.51000000e+02, -8.75534424e+02
5.52000000e+02, -8.77255066e+02
5.53000000e+02, -8.78976807e+02
5.54000000e+02, -8.80697815e+02
5.55000000e+02, -8.76911255e+02
5.56000000e+02, -8.72926147e+02
5.57000000e+02, -8.68941345e+02
5.58000000e+02, -8.64954285e+02
5.59000000e+02, -8.60968689e+02
5.60000000e+02, -8.79698608e+02
5.61000000e+02, -8.99039612e+02
5.62000000e+02, -9.18381104e+02
5.63000000e+02, -9.37731812e+02
5.64000000e+02, -9.57075562e+02
5.65000000e+02, -1.05615613e+03
5.66000000e+02, -1.15665125e+03
5.67000000e+02, -1.25714368e+03
5.68000000e+02, -1.35771265e+03
5.69000000e+02, -1.45914429e+03
5.70000000e+02, -1.48392334e+03
5.71000000e+02, -1.50891406e+03
5.72000000e+02, -1.53394666e+03
5.73000000e+02, -1.55895630e+03
5.74000000e+02, -1.58396570e+03


