Chart Count,Pressure [ Pa ]
0.00000000e+00, -1.37585303e+03
1.00000000e+00, -1.38705212e+03
2.00000000e+00, -1.39821692e+03
3.00000000e+00, -1.40934753e+03
4.00000000e+00, -1.41766724e+03
5.00000000e+00, -1.42385815e+03
6.00000000e+00, -1.42621545e+03
7.00000000e+00, -1.42853857e+03
8.00000000e+00, -1.43082727e+03
9.00000000e+00, -1.43307324e+03
1.00000000e+01, -1.43527222e+03
1.10000000e+01, -1.43743872e+03
1.20000000e+01, -1.43826892e+03
1.30000000e+01, -1.43708435e+03
1.40000000e+01, -1.43588330e+03
1.50000000e+01, -1.43464893e+03
1.60000000e+01, -1.43339661e+03
1.70000000e+01, -1.43212817e+03
1.80000000e+01, -1.43084375e+03
1.90000000e+01, -1.42917786e+03
2.00000000e+01, -1.42674023e+03
2.10000000e+01, -1.42429822e+03
2.20000000e+01, -1.42185168e+03
2.30000000e+01, -1.41940088e+03
2.40000000e+01, -1.41694568e+03
2.50000000e+01, -1.41446606e+03
2.60000000e+01, -1.41185828e+03
2.70000000e+01, -1.40913916e+03
2.80000000e+01, -1.40639709e+03
2.90000000e+01, -1.40365405e+03
3.00000000e+01, -1.40091003e+03
3.10000000e+01, -1.39816504e+03
3.20000000e+01, -1.39542358e+03
3.30000000e+01, -1.39269824e+03
3.40000000e+01, -1.38997266e+03
3.50000000e+01, -1.38724927e+03
3.60000000e+01, -1.38452209e+03
3.70000000e+01, -1.38179004e+03
3.80000000e+01, -1.37904321e+03
3.90000000e+01, -1.37638135e+03
4.00000000e+01, -1.37370557e+03
4.10000000e+01, -1.37102759e+03
4.20000000e+01, -1.36834937e+03
4.30000000e+01, -1.36567126e+03
4.40000000e+01, -1.36299512e+03
4.50000000e+01, -1.36040125e+03
4.60000000e+01, -1.35782422e+03
4.70000000e+01, -1.35524707e+03
4.80000000e+01, -1.35266992e+03
4.90000000e+01, -1.35009265e+03
5.00000000e+01, -1.34751013e+03
5.10000000e+01, -1.34499683e+03
5.20000000e+01, -1.34250635e+03
5.30000000e+01, -1.34001550e+03
5.40000000e+01, -1.33752478e+03
5.50000000e+01, -1.33503394e+03
5.60000000e+01, -1.33254321e+03
5.70000000e+01, -1.33013171e+03
5.80000000e+01, -1.32774927e+03
5.90000000e+01, -1.32536670e+03
6.00000000e+01, -1.32298413e+03
6.10000000e+01, -1.32060193e+03
6.20000000e+01, -1.31820154e+03
6.30000000e+01, -1.31588525e+03
6.40000000e+01, -1.31357751e+03
6.50000000e+01, -1.31125439e+03
6.60000000e+01, -1.30893140e+03
6.70000000e+01, -1.30660828e+03
6.80000000e+01, -1.30431055e+03
6.90000000e+01, -1.30208606e+03
7.00000000e+01, -1.29985779e+03
7.10000000e+01, -1.29761792e+03
7.20000000e+01, -1.29537781e+03
7.30000000e+01, -1.29314282e+03
7.40000000e+01, -1.29097900e+03
7.50000000e+01, -1.28881506e+03
7.60000000e+01, -1.28665125e+03
7.70000000e+01, -1.28448743e+03
7.80000000e+01, -1.28234033e+03
7.90000000e+01, -1.28021021e+03
8.00000000e+01, -1.27808032e+03
8.10000000e+01, -1.27595020e+03
8.20000000e+01, -1.27382910e+03
8.30000000e+01, -1.27176086e+03
8.40000000e+01, -1.26969836e+03
8.50000000e+01, -1.26765588e+03
8.60000000e+01, -1.26561340e+03
8.70000000e+01, -1.26358032e+03
8.80000000e+01, -1.26157544e+03
8.90000000e+01, -1.25957092e+03
9.00000000e+01, -1.25756995e+03
9.10000000e+01, -1.25558435e+03
9.20000000e+01, -1.25364160e+03
9.30000000e+01, -1.25169873e+03
9.40000000e+01, -1.24973962e+03
9.50000000e+01, -1.24777490e+03
9.60000000e+01, -1.24588501e+03
9.70000000e+01, -1.24399060e+03
9.80000000e+01, -1.24207251e+03
9.90000000e+01, -1.24015442e+03
1.00000000e+02, -1.23826453e+03
1.01000000e+02, -1.23641284e+03
1.02000000e+02, -1.23455847e+03
1.03000000e+02, -1.23270227e+03
1.04000000e+02, -1.23085840e+03
1.05000000e+02, -1.22905139e+03
1.06000000e+02, -1.22724451e+03
1.07000000e+02, -1.22543079e+03
1.08000000e+02, -1.22364368e+03
1.09000000e+02, -1.22188721e+03
1.10000000e+02, -1.22012708e+03
1.11000000e+02, -1.21836694e+03
1.12000000e+02, -1.21660693e+03
1.13000000e+02, -1.21487256e+03
1.14000000e+02, -1.21316797e+03
1.15000000e+02, -1.21146362e+03
1.16000000e+02, -1.20976355e+03
1.17000000e+02, -1.20808423e+03
1.18000000e+02, -1.20641504e+03
1.19000000e+02, -1.20474597e+03
1.20000000e+02, -1.20307666e+03
1.21000000e+02, -1.20141528e+03
1.22000000e+02, -1.19977710e+03
1.23000000e+02, -1.19816028e+03
1.24000000e+02, -1.19653870e+03
1.25000000e+02, -1.19491309e+03
1.26000000e+02, -1.19330103e+03
1.27000000e+02, -1.19172681e+03
1.28000000e+02, -1.19015259e+03
1.29000000e+02, -1.18857825e+03
1.30000000e+02, -1.18699841e+03
1.31000000e+02, -1.18542773e+03
1.32000000e+02, -1.18390405e+03
1.33000000e+02, -1.18238208e+03
1.34000000e+02, -1.18086035e+03
1.35000000e+02, -1.17933850e+03
1.36000000e+02, -1.17781665e+03
1.37000000e+02, -1.17633240e+03
1.38000000e+02, -1.17485376e+03
1.39000000e+02, -1.17337866e+03
1.40000000e+02, -1.17190479e+03
1.41000000e+02, -1.17043079e+03
1.42000000e+02, -1.16897095e+03
1.43000000e+02, -1.16752661e+03
1.44000000e+02, -1.16608362e+03
1.45000000e+02, -1.16464783e+03
1.46000000e+02, -1.16321204e+03
1.47000000e+02, -1.16177637e+03
1.48000000e+02, -1.16035242e+03
1.49000000e+02, -1.15894922e+03
1.50000000e+02, -1.15754614e+03
1.51000000e+02, -1.15615735e+03
1.52000000e+02, -1.15477075e+03
1.53000000e+02, -1.15338391e+03
1.54000000e+02, -1.15200964e+03
1.55000000e+02, -1.15065430e+03
1.56000000e+02, -1.14930798e+03
1.57000000e+02, -1.14797864e+03
1.58000000e+02, -1.14664917e+03
1.59000000e+02, -1.14532056e+03
1.60000000e+02, -1.14399683e+03
1.61000000e+02, -1.14268262e+03
1.62000000e+02, -1.14138965e+03
1.63000000e+02, -1.14009644e+03
1.64000000e+02, -1.13880334e+03
1.65000000e+02, -1.13750903e+03
1.66000000e+02, -1.13621509e+03
1.67000000e+02, -1.13493225e+03
1.68000000e+02, -1.13364966e+03
1.69000000e+02, -1.13236694e+03
1.70000000e+02, -1.13108411e+03
1.71000000e+02, -1.12982532e+03
1.72000000e+02, -1.12858374e+03
1.73000000e+02, -1.12732129e+03
1.74000000e+02, -1.12609717e+03
1.75000000e+02, -1.12485181e+03
1.76000000e+02, -1.12363379e+03
1.77000000e+02, -1.12242102e+03
1.78000000e+02, -1.12119983e+03
1.79000000e+02, -1.11997473e+03
1.80000000e+02, -1.11875049e+03
1.81000000e+02, -1.11755591e+03
1.82000000e+02, -1.11637109e+03
1.83000000e+02, -1.11519250e+03
1.84000000e+02, -1.11401392e+03
1.85000000e+02, -1.11283521e+03
1.86000000e+02, -1.11166357e+03
1.87000000e+02, -1.11050928e+03
1.88000000e+02, -1.10936145e+03
1.89000000e+02, -1.10821350e+03
1.90000000e+02, -1.10706567e+03
1.91000000e+02, -1.10591772e+03
1.92000000e+02, -1.10477808e+03
1.93000000e+02, -1.10364709e+03
1.94000000e+02, -1.10251367e+03
1.95000000e+02, -1.10138025e+03
1.96000000e+02, -1.10024683e+03
1.97000000e+02, -1.09914282e+03
1.98000000e+02, -1.09804736e+03
1.99000000e+02, -1.09695190e+03
2.00000000e+02, -1.09585645e+03
2.01000000e+02, -1.09476196e+03
2.02000000e+02, -1.09368970e+03
2.03000000e+02, -1.09261499e+03
2.04000000e+02, -1.09154041e+03
2.05000000e+02, -1.09046594e+03
2.06000000e+02, -1.08939758e+03
2.07000000e+02, -1.08834351e+03
2.08000000e+02, -1.08728955e+03
2.09000000e+02, -1.08623547e+03
2.10000000e+02, -1.08518103e+03
2.11000000e+02, -1.08412695e+03
2.12000000e+02, -1.08307678e+03
2.13000000e+02, -1.08202649e+03
2.14000000e+02, -1.08097595e+03
2.15000000e+02, -1.07992554e+03
2.16000000e+02, -1.07890186e+03
2.17000000e+02, -1.07788843e+03
2.18000000e+02, -1.07687500e+03
2.19000000e+02, -1.07586157e+03
2.20000000e+02, -1.07484216e+03
2.21000000e+02, -1.07385364e+03
2.22000000e+02, -1.07286475e+03
2.23000000e+02, -1.07187585e+03
2.24000000e+02, -1.07088721e+03
2.25000000e+02, -1.06990161e+03
2.26000000e+02, -1.06893628e+03
2.27000000e+02, -1.06797095e+03
2.28000000e+02, -1.06700562e+03
2.29000000e+02, -1.06604028e+03
2.30000000e+02, -1.06506653e+03
2.31000000e+02, -1.06408472e+03
2.32000000e+02, -1.06310303e+03
2.33000000e+02, -1.06212122e+03
2.34000000e+02, -1.06114075e+03
2.35000000e+02, -1.06016296e+03
2.36000000e+02, -1.05918140e+03
2.37000000e+02, -1.05819971e+03
2.38000000e+02, -1.05724011e+03
2.39000000e+02, -1.05629553e+03
2.40000000e+02, -1.05534729e+03
2.41000000e+02, -1.05439722e+03
2.42000000e+02, -1.05344727e+03
2.43000000e+02, -1.05251392e+03
2.44000000e+02, -1.05159387e+03
2.45000000e+02, -1.05067383e+03
2.46000000e+02, -1.04975378e+03
2.47000000e+02, -1.04883276e+03
2.48000000e+02, -1.04791052e+03
2.49000000e+02, -1.04699536e+03
2.50000000e+02, -1.04607910e+03
2.51000000e+02, -1.04516211e+03
2.52000000e+02, -1.04424512e+03
2.53000000e+02, -1.04332825e+03
2.54000000e+02, -1.04242456e+03
2.55000000e+02, -1.04152271e+03
2.56000000e+02, -1.04062378e+03
2.57000000e+02, -1.03973181e+03
2.58000000e+02, -1.03883984e+03
2.59000000e+02, -1.03796863e+03
2.60000000e+02, -1.03710620e+03
2.61000000e+02, -1.03624377e+03
2.62000000e+02, -1.03537476e+03
2.63000000e+02, -1.03450537e+03
2.64000000e+02, -1.03364111e+03
2.65000000e+02, -1.03279553e+03
2.66000000e+02, -1.03193469e+03
2.67000000e+02, -1.03107043e+03
2.68000000e+02, -1.03020618e+03
2.69000000e+02, -1.02934399e+03
2.70000000e+02, -1.02848279e+03
2.71000000e+02, -1.02761853e+03
2.72000000e+02, -1.02675415e+03
2.73000000e+02, -1.02589026e+03
2.74000000e+02, -1.02503027e+03
2.75000000e+02, -1.02418567e+03
2.76000000e+02, -1.02336426e+03
2.77000000e+02, -1.02254272e+03
2.78000000e+02, -1.02171985e+03
2.79000000e+02, -1.02089697e+03
2.80000000e+02, -1.02008801e+03
2.81000000e+02, -1.01929022e+03
2.82000000e+02, -1.01849255e+03
2.83000000e+02, -1.01769482e+03
2.84000000e+02, -1.01689307e+03
2.85000000e+02, -1.01607861e+03
2.86000000e+02, -1.01526422e+03
2.87000000e+02, -1.01444977e+03
2.88000000e+02, -1.01363550e+03
2.89000000e+02, -1.01282166e+03
2.90000000e+02, -1.01200818e+03
2.91000000e+02, -1.01119470e+03
2.92000000e+02, -1.01038123e+03
2.93000000e+02, -1.00958246e+03
2.94000000e+02, -1.00878809e+03
2.95000000e+02, -1.00799365e+03
2.96000000e+02, -1.00719928e+03
2.97000000e+02, -1.00640747e+03
2.98000000e+02, -1.00563013e+03
2.99000000e+02, -1.00485986e+03
3.00000000e+02, -1.00408978e+03
3.01000000e+02, -1.00331958e+03
3.02000000e+02, -1.00254944e+03
3.03000000e+02, -1.00177924e+03
3.04000000e+02, -1.00100513e+03
3.05000000e+02, -1.00022327e+03
3.06000000e+02, -9.99441406e+02
3.07000000e+02, -9.98659424e+02
3.08000000e+02, -9.97877563e+02
3.09000000e+02, -9.97094727e+02
3.10000000e+02, -9.96310059e+02
3.11000000e+02, -9.95525513e+02
3.12000000e+02, -9.94740906e+02
3.13000000e+02, -9.93957886e+02
3.14000000e+02, -9.93185486e+02
3.15000000e+02, -9.92420654e+02
3.16000000e+02, -9.91653992e+02
3.17000000e+02, -9.90887329e+02
3.18000000e+02, -9.90126587e+02
3.19000000e+02, -9.89366760e+02
3.20000000e+02, -9.88605591e+02
3.21000000e+02, -9.87843506e+02
3.22000000e+02, -9.87085205e+02
3.23000000e+02, -9.86319336e+02
3.24000000e+02, -9.85553467e+02
3.25000000e+02, -9.84787720e+02
3.26000000e+02, -9.84029053e+02
3.27000000e+02, -9.83274597e+02
3.28000000e+02, -9.82520813e+02
3.29000000e+02, -9.81769104e+02
3.30000000e+02, -9.81018738e+02
3.31000000e+02, -9.80272400e+02
3.32000000e+02, -9.79526001e+02
3.33000000e+02, -9.78779724e+02
3.34000000e+02, -9.78033020e+02
3.35000000e+02, -9.77285889e+02
3.36000000e+02, -9.76534790e+02
3.37000000e+02, -9.75783630e+02
3.38000000e+02, -9.75032593e+02
3.39000000e+02, -9.74281433e+02
3.40000000e+02, -9.73536133e+02
3.41000000e+02, -9.72793579e+02
3.42000000e+02, -9.72051025e+02
3.43000000e+02, -9.71308533e+02
3.44000000e+02, -9.70572327e+02
3.45000000e+02, -9.69839722e+02
3.46000000e+02, -9.69107178e+02
3.47000000e+02, -9.68374634e+02
3.48000000e+02, -9.67639343e+02
3.49000000e+02, -9.66920349e+02
3.50000000e+02, -9.66201660e+02
3.51000000e+02, -9.65483093e+02
3.52000000e+02, -9.64766907e+02
3.53000000e+02, -9.64051025e+02
3.54000000e+02, -9.63331421e+02
3.55000000e+02, -9.62611938e+02
3.56000000e+02, -9.61892273e+02
3.57000000e+02, -9.61170105e+02
3.58000000e+02, -9.60446899e+02
3.59000000e+02, -9.59723694e+02
3.60000000e+02, -9.59000549e+02
3.61000000e+02, -9.58277344e+02
3.62000000e+02, -9.57554321e+02
3.63000000e+02, -9.56831360e+02
3.64000000e+02, -9.56108398e+02
3.65000000e+02, -9.55385498e+02
3.66000000e+02, -9.54662537e+02
3.67000000e+02, -9.53941772e+02
3.68000000e+02, -9.53225342e+02
3.69000000e+02, -9.52508972e+02
3.70000000e+02, -9.51792969e+02
3.71000000e+02, -9.51077698e+02
3.72000000e+02, -9.50364746e+02
3.73000000e+02, -9.49654053e+02
3.74000000e+02, -9.48943298e+02
3.75000000e+02, -9.48232605e+02
3.76000000e+02, -9.47526245e+02
3.77000000e+02, -9.46819824e+02
3.78000000e+02, -9.46112732e+02
3.79000000e+02, -9.45404297e+02
3.80000000e+02, -9.44702698e+02
3.81000000e+02, -9.44003784e+02
3.82000000e+02, -9.43304810e+02
3.83000000e+02, -9.42604736e+02
3.84000000e+02, -9.41904907e+02
3.85000000e+02, -9.41208618e+02
3.86000000e+02, -9.40512817e+02
3.87000000e+02, -9.39817078e+02
3.88000000e+02, -9.39121826e+02
3.89000000e+02, -9.38427246e+02
3.90000000e+02, -9.37732666e+02
3.91000000e+02, -9.37038147e+02
3.92000000e+02, -9.36344238e+02
3.93000000e+02, -9.35652527e+02
3.94000000e+02, -9.34960083e+02
3.95000000e+02, -9.34267456e+02
3.96000000e+02, -9.33574646e+02
3.97000000e+02, -9.32881958e+02
3.98000000e+02, -9.32190430e+02
3.99000000e+02, -9.31504700e+02
4.00000000e+02, -9.30819458e+02
4.01000000e+02, -9.30133972e+02
4.02000000e+02, -9.29448303e+02
4.03000000e+02, -9.28761230e+02
4.04000000e+02, -9.28075684e+02
4.05000000e+02, -9.27389709e+02
4.06000000e+02, -9.26703552e+02
4.07000000e+02, -9.26017273e+02
4.08000000e+02, -9.25330994e+02
4.09000000e+02, -9.24643677e+02
4.10000000e+02, -9.23956177e+02
4.11000000e+02, -9.23270630e+02
4.12000000e+02, -9.22585327e+02
4.13000000e+02, -9.21899780e+02
4.14000000e+02, -9.21216919e+02
4.15000000e+02, -9.20540710e+02
4.16000000e+02, -9.19864502e+02
4.17000000e+02, -9.19190063e+02
4.18000000e+02, -9.18518555e+02
4.19000000e+02, -9.17852966e+02
4.20000000e+02, -9.17192993e+02
4.21000000e+02, -9.16532959e+02
4.22000000e+02, -9.15872864e+02
4.23000000e+02, -9.15210205e+02
4.24000000e+02, -9.14546509e+02
4.25000000e+02, -9.13866028e+02
4.26000000e+02, -9.13185547e+02
4.27000000e+02, -9.12505005e+02
4.28000000e+02, -9.11822693e+02
4.29000000e+02, -9.11137085e+02
4.30000000e+02, -9.10445923e+02
4.31000000e+02, -9.09750061e+02
4.32000000e+02, -9.09054321e+02
4.33000000e+02, -9.08358521e+02
4.34000000e+02, -9.07666931e+02
4.35000000e+02, -9.06981018e+02
4.36000000e+02, -9.06317078e+02
4.37000000e+02, -9.05653076e+02
4.38000000e+02, -9.04988953e+02
4.39000000e+02, -9.04325317e+02
4.40000000e+02, -9.03662415e+02
4.41000000e+02, -9.03007446e+02
4.42000000e+02, -9.02354797e+02
4.43000000e+02, -9.01701782e+02
4.44000000e+02, -9.01047607e+02
4.45000000e+02, -9.00393433e+02
4.46000000e+02, -8.99737061e+02
4.47000000e+02, -8.99056396e+02
4.48000000e+02, -8.98375793e+02
4.49000000e+02, -8.97695068e+02
4.50000000e+02, -8.97010742e+02
4.51000000e+02, -8.96312256e+02
4.52000000e+02, -8.95611572e+02
4.53000000e+02, -8.94911438e+02
4.54000000e+02, -8.94211304e+02
4.55000000e+02, -8.93515747e+02
4.56000000e+02, -8.92831055e+02
4.57000000e+02, -8.92146362e+02
4.58000000e+02, -8.91464722e+02
4.59000000e+02, -8.90787048e+02
4.60000000e+02, -8.90124146e+02
4.61000000e+02, -8.89461304e+02
4.62000000e+02, -8.88798462e+02
4.63000000e+02, -8.88153687e+02
4.64000000e+02, -8.87509399e+02
4.65000000e+02, -8.86865112e+02
4.66000000e+02, -8.86218933e+02
4.67000000e+02, -8.85573914e+02
4.68000000e+02, -8.84932861e+02
4.69000000e+02, -8.84291748e+02
4.70000000e+02, -8.83649902e+02
4.71000000e+02, -8.83007568e+02
4.72000000e+02, -8.82357239e+02
4.73000000e+02, -8.81700012e+02
4.74000000e+02, -8.81038696e+02
4.75000000e+02, -8.80377502e+02
4.76000000e+02, -8.79716187e+02
4.77000000e+02, -8.79054688e+02
4.78000000e+02, -8.78392456e+02
4.79000000e+02, -8.77730103e+02
4.80000000e+02, -8.77067871e+02
4.81000000e+02, -8.76405579e+02
4.82000000e+02, -8.75744263e+02
4.83000000e+02, -8.75090027e+02
4.84000000e+02, -8.74440247e+02
4.85000000e+02, -8.73791321e+02
4.86000000e+02, -8.73142456e+02
4.87000000e+02, -8.72493652e+02
4.88000000e+02, -8.71844727e+02
4.89000000e+02, -8.71196167e+02
4.90000000e+02, -8.70548035e+02
4.91000000e+02, -8.69900085e+02
4.92000000e+02, -8.69252014e+02
4.93000000e+02, -8.68604431e+02
4.94000000e+02, -8.67957825e+02
4.95000000e+02, -8.67318787e+02
4.96000000e+02, -8.66681641e+02
4.97000000e+02, -8.66044067e+02
4.98000000e+02, -8.65406250e+02
4.99000000e+02, -8.64768433e+02
5.00000000e+02, -8.64130615e+02
5.01000000e+02, -8.63511597e+02
5.02000000e+02, -8.62894043e+02
5.03000000e+02, -8.62276428e+02
5.04000000e+02, -8.61659424e+02
5.05000000e+02, -8.61042114e+02
5.06000000e+02, -8.60424927e+02
5.07000000e+02, -8.59822388e+02
5.08000000e+02, -8.59220337e+02
5.09000000e+02, -8.58618347e+02
5.10000000e+02, -8.58016174e+02
5.11000000e+02, -8.57414124e+02
5.12000000e+02, -8.56810730e+02
5.13000000e+02, -8.56170959e+02
5.14000000e+02, -8.55524902e+02
5.15000000e+02, -8.54878784e+02
5.16000000e+02, -8.54232605e+02
5.17000000e+02, -8.53586609e+02
5.18000000e+02, -8.52940430e+02
5.19000000e+02, -8.52249146e+02
5.20000000e+02, -8.51551392e+02
5.21000000e+02, -8.50853760e+02
5.22000000e+02, -8.50156128e+02
5.23000000e+02, -8.49452698e+02
5.24000000e+02, -8.48745972e+02
5.25000000e+02, -8.48042969e+02
5.26000000e+02, -8.47349243e+02
5.27000000e+02, -8.46655518e+02
5.28000000e+02, -8.45961792e+02
5.29000000e+02, -8.45367249e+02
5.30000000e+02, -8.44825928e+02
5.31000000e+02, -8.44284668e+02
5.32000000e+02, -8.43743347e+02
5.33000000e+02, -8.43218872e+02
5.34000000e+02, -8.42793579e+02
5.35000000e+02, -8.42402649e+02
5.36000000e+02, -8.42005066e+02
5.37000000e+02, -8.41601379e+02
5.38000000e+02, -8.41197449e+02
5.39000000e+02, -8.40370850e+02
5.40000000e+02, -8.39525879e+02
5.41000000e+02, -8.38680908e+02
5.42000000e+02, -8.37835815e+02
5.43000000e+02, -8.36990051e+02
5.44000000e+02, -8.35971375e+02
5.45000000e+02, -8.34322388e+02
5.46000000e+02, -8.32673462e+02
5.47000000e+02, -8.31024292e+02
5.48000000e+02, -8.29380249e+02
5.49000000e+02, -8.27922241e+02
5.50000000e+02, -8.26638916e+02
5.51000000e+02, -8.25355652e+02
5.52000000e+02, -8.24063721e+02
5.53000000e+02, -8.22736023e+02
5.54000000e+02, -8.22636841e+02
5.55000000e+02, -8.22884399e+02
5.56000000e+02, -8.23125366e+02
5.57000000e+02, -8.23359497e+02
5.58000000e+02, -8.23595825e+02
5.59000000e+02, -8.23830933e+02
5.60000000e+02, -8.24029114e+02
5.61000000e+02, -8.23408691e+02
5.62000000e+02, -8.22429382e+02
5.63000000e+02, -8.21411194e+02
5.64000000e+02, -8.20354248e+02
5.65000000e+02, -8.14283081e+02
5.66000000e+02, -8.07197510e+02
5.67000000e+02, -8.00074951e+02
5.68000000e+02, -7.92282837e+02
5.69000000e+02, -7.83182617e+02
5.70000000e+02, -7.74052551e+02
5.71000000e+02, -7.59442993e+02
5.72000000e+02, -7.41518921e+02
5.73000000e+02, -7.23603638e+02
5.74000000e+02, -7.05697327e+02


